x,ID(A)_VGS=3.0
0.0,0.0
0.02512562814070352,0.006990985076134443
0.05025125628140704,0.0138935885457438
0.07537688442211056,0.02070781040882807
0.10050251256281408,0.02743365066538725
0.1256281407035176,0.034071109315421344
0.15075376884422112,0.040620186358930346
0.17587939698492464,0.047080881795914256
0.20100502512562815,0.053453195626373094
0.22613065326633167,0.059737127850306826
0.2512562814070352,0.06593267846771549
0.2763819095477387,0.07203984747859905
0.30150753768844224,0.07805863488295753
0.32663316582914576,0.08398904068079092
0.35175879396984927,0.08983106487209923
0.3768844221105528,0.09558470745688244
0.4020100502512563,0.10124996843514056
0.4271356783919598,0.1068268478068736
0.45226130653266333,0.11231534557208155
0.47738693467336685,0.11771546173076441
0.5025125628140704,0.12302719628292219
0.5276381909547739,0.1282505492285549
0.5527638190954774,0.13338552056766248
0.577889447236181,0.138432110300245
0.6030150753768845,0.14339031842630243
0.628140703517588,0.14826014494583475
0.6532663316582915,0.153041589858842
0.678391959798995,0.15773465316532415
0.7035175879396985,0.16233933486528124
0.7286432160804021,0.16685563495871322
0.7537688442211056,0.1712835534456201
0.7788944723618091,0.17562309032600193
0.8040201005025126,0.17987424559985865
0.8291457286432161,0.18403701926719027
0.8542713567839196,0.18811141132799683
0.8793969849246231,0.1920974217822783
0.9045226130653267,0.19599505063003467
0.9296482412060302,0.19980429787126594
0.9547738693467337,0.20352516350597213
0.9798994974874372,0.20715764753415325
1.0050251256281408,0.21070174995580926
1.0301507537688444,0.2141574707709402
1.0552763819095479,0.21752480997954604
1.0804020100502514,0.22080376758162681
1.105527638190955,0.22399434357718248
1.1306532663316584,0.22709653796621304
1.155778894472362,0.23011035074871855
1.1809045226130654,0.23303578192469895
1.206030150753769,0.23587283149415425
1.2311557788944725,0.23862149945708447
1.256281407035176,0.2412817858134896
1.2814070351758795,0.24385369056336967
1.306532663316583,0.24633721370672465
1.3316582914572865,0.24873235524355455
1.35678391959799,0.2510391151738593
1.3819095477386936,0.25325749349763904
1.407035175879397,0.25538749021489365
1.4321608040201006,0.2574291053256232
1.4572864321608041,0.2593823388298276
1.4824120603015076,0.26124719072750696
1.5075376884422111,0.2630236610186612
1.5326633165829147,0.2647117497032904
1.5577889447236182,0.2663114567813945
1.5829145728643217,0.2678227822529735
1.6080402010050252,0.2692457261180274
1.6331658291457287,0.27058028837655623
1.6582914572864322,0.27182646902855995
1.6834170854271358,0.27298426807403864
1.7085427135678393,0.2740536855129922
1.7336683417085428,0.2750347213454207
1.7587939698492463,0.275927375571324
1.7839195979899498,0.27673164819070234
1.8090452261306533,0.2774475392035556
1.8341708542713568,0.2780750486098837
1.8592964824120604,0.2786141764096867
1.8844221105527639,0.27906492260296467
1.9095477386934674,0.2794272871897175
1.934673366834171,0.2797012701699453
1.9597989949748744,0.27988687154364794
1.984924623115578,0.2799840913108256
2.0100502512562817,0.29125628140703524
2.035175879396985,0.29139698492462324
2.0603015075376887,0.2915376884422111
2.085427135678392,0.2916783919597991
2.1105527638190957,0.29181909547738705
2.1356783919597992,0.29195979899497493
2.1608040201005028,0.2921005025125629
2.1859296482412063,0.2922412060301508
2.21105527638191,0.2923819095477388
2.2361809045226133,0.29252261306532673
2.261306532663317,0.29266331658291467
2.2864321608040203,0.2928040201005026
2.311557788944724,0.2929447236180906
2.3366834170854274,0.2930854271356785
2.361809045226131,0.2932261306532664
2.3869346733668344,0.29336683417085435
2.412060301507538,0.2935075376884423
2.4371859296482414,0.2936482412060303
2.462311557788945,0.29378894472361816
2.4874371859296485,0.29392964824120615
2.512562814070352,0.29407035175879404
2.5376884422110555,0.29421105527638197
2.562814070351759,0.29435175879396996
2.5879396984924625,0.29449246231155785
2.613065326633166,0.29463316582914584
2.6381909547738696,0.2947738693467337
2.663316582914573,0.2949145728643217
2.6884422110552766,0.29505527638190965
2.71356783919598,0.2951959798994976
2.7386934673366836,0.2953366834170855
2.763819095477387,0.2954773869346734
2.7889447236180906,0.2956180904522614
2.814070351758794,0.29575879396984933
2.8391959798994977,0.29589949748743727
2.864321608040201,0.2960402010050252
2.8894472361809047,0.2961809045226132
2.9145728643216082,0.2963216080402011
2.9396984924623117,0.29646231155778907
2.9648241206030153,0.29660301507537695
2.9899497487437188,0.2967437185929649
3.0150753768844223,0.2968844221105529
3.040201005025126,0.29702512562814076
3.0653266331658293,0.29716582914572875
3.090452261306533,0.29730653266331664
3.1155778894472363,0.29744723618090463
3.14070351758794,0.29758793969849257
3.1658291457286434,0.2977286432160805
3.190954773869347,0.29786934673366844
3.2160804020100504,0.2980100502512563
3.241206030150754,0.2981507537688443
3.2663316582914574,0.29829145728643225
3.291457286432161,0.2984321608040202
3.3165829145728645,0.2985728643216081
3.341708542713568,0.2987135678391961
3.3668341708542715,0.298854271356784
3.391959798994975,0.29899497487437193
3.4170854271356785,0.29913567839195987
3.442211055276382,0.2992763819095478
3.4673366834170856,0.2994170854271358
3.492462311557789,0.2995577889447237
3.5175879396984926,0.29969849246231167
3.542713567839196,0.2998391959798996
3.5678391959798996,0.2999798994974875
3.592964824120603,0.3001206030150755
3.6180904522613067,0.30026130653266336
3.64321608040201,0.30040201005025136
3.6683417085427137,0.3005427135678393
3.693467336683417,0.30068341708542723
3.7185929648241207,0.30082412060301517
3.7437185929648242,0.3009648241206031
3.7688442211055277,0.30110552763819104
3.7939698492462313,0.301246231155779
3.819095477386935,0.3013869346733669
3.8442211055276383,0.30152763819095485
3.869346733668342,0.30166834170854284
3.8944723618090453,0.3018090452261307
3.919597989949749,0.3019497487437187
3.9447236180904524,0.3020904522613066
3.969849246231156,0.3022311557788946
3.9949748743718594,0.3023718592964825
4.020100502512563,0.3025125628140704
4.045226130653266,0.3026532663316584
4.07035175879397,0.3027939698492463
4.0954773869346734,0.3029346733668343
4.120603015075377,0.3030753768844222
4.1457286432160805,0.30321608040201015
4.170854271356784,0.3033567839195981
4.1959798994974875,0.3034974874371861
4.2211055276381915,0.30363819095477396
4.2462311557788945,0.3037788944723619
4.2713567839195985,0.30391959798994983
4.296482412060302,0.30406030150753777
4.3216080402010055,0.30420100502512576
4.346733668341709,0.30434170854271364
4.371859296482413,0.30448241206030163
4.396984924623116,0.3046231155778895
4.42211055276382,0.3047638190954775
4.447236180904523,0.30490452261306544
4.472361809045227,0.3050452261306533
4.49748743718593,0.3051859296482413
4.522613065326634,0.3053266331658292
4.547738693467337,0.3054673366834172
4.572864321608041,0.3056080402010051
4.597989949748744,0.30574874371859306
4.623115577889448,0.305889447236181
4.648241206030151,0.3060301507537689
4.673366834170855,0.3061708542713569
4.698492462311558,0.3063115577889448
4.723618090452262,0.30645226130653275
4.748743718592965,0.3065929648241207
4.773869346733669,0.3067336683417087
4.798994974874372,0.30687437185929656
4.824120603015076,0.30701507537688455
4.849246231155779,0.30715577889447243
4.874371859296483,0.30729648241206037
4.899497487437186,0.30743718592964836
4.92462311557789,0.30757788944723624
4.949748743718593,0.30771859296482423
4.974874371859297,0.3078592964824121
5.0,0.3080000000000001
