x,ID(A)_VGS=1.5
0.0,0.0
0.02512562814070352,0.001714603166586703
0.05025125628140704,0.0033408247266483184
0.07537688442211056,0.0048786646801848455
0.10050251256281408,0.006328123027196285
0.1256281407035176,0.007689199767682637
0.15075376884422112,0.008961894901643902
0.17587939698492464,0.010146208429080077
0.20100502512562815,0.011242140349991166
0.22613065326633167,0.012249690664377167
0.2512562814070352,0.013168859372238079
0.2763819095477387,0.013999646473573905
0.30150753768844224,0.01474205196838464
0.32663316582914576,0.01539607585667029
0.35175879396984927,0.015961718138430853
0.3768844221105528,0.016438978813666325
0.4020100502512563,0.01682785788237671
0.4271356783919598,0.017128355344562012
0.45226130653266333,0.017340471200222224
0.47738693467336685,0.017464205449357343
0.5025125628140704,0.01767587939698493
0.5276381909547739,0.017684673366834176
0.5527638190954774,0.017693467336683425
0.577889447236181,0.017702261306532668
0.6030150753768845,0.017711055276381917
0.628140703517588,0.01771984924623116
0.6532663316582915,0.017728643216080406
0.678391959798995,0.017737437185929655
0.7035175879396985,0.017746231155778898
0.7286432160804021,0.017755025125628147
0.7537688442211056,0.01776381909547739
0.7788944723618091,0.01777261306532664
0.8040201005025126,0.017781407035175886
0.8291457286432161,0.01779020100502513
0.8542713567839196,0.017798994974874378
0.8793969849246231,0.01780778894472362
0.9045226130653267,0.01781658291457287
0.9296482412060302,0.017825376884422116
0.9547738693467337,0.017834170854271362
0.9798994974874372,0.017842964824120608
1.0050251256281408,0.017851758793969857
1.0301507537688444,0.0178605527638191
1.0552763819095479,0.017869346733668346
1.0804020100502514,0.017878140703517592
1.105527638190955,0.017886934673366838
1.1306532663316584,0.017895728643216088
1.155778894472362,0.01790452261306533
1.1809045226130654,0.01791331658291458
1.206030150753769,0.017922110552763822
1.2311557788944725,0.017930904522613072
1.256281407035176,0.017939698492462318
1.2814070351758795,0.01794849246231156
1.306532663316583,0.01795728643216081
1.3316582914572865,0.017966080402010053
1.35678391959799,0.017974874371859302
1.3819095477386936,0.017983668341708548
1.407035175879397,0.017992462311557794
1.4321608040201006,0.01800125628140704
1.4572864321608041,0.01801005025125629
1.4824120603015076,0.018018844221105532
1.5075376884422111,0.01802763819095478
1.5326633165829147,0.018036432160804024
1.5577889447236182,0.01804522613065327
1.5829145728643217,0.01805402010050252
1.6080402010050252,0.018062814070351763
1.6331658291457287,0.018071608040201012
1.6582914572864322,0.018080402010050255
1.6834170854271358,0.018089195979899504
1.7085427135678393,0.01809798994974875
1.7336683417085428,0.018106783919597993
1.7587939698492463,0.018115577889447242
1.7839195979899498,0.01812437185929649
1.8090452261306533,0.018133165829145734
1.8341708542713568,0.01814195979899498
1.8592964824120604,0.018150753768844227
1.8844221105527639,0.018159547738693473
1.9095477386934674,0.01816834170854272
1.934673366834171,0.018177135678391965
1.9597989949748744,0.01818592964824121
1.984924623115578,0.018194723618090457
2.0100502512562817,0.018203517587939703
2.035175879396985,0.018212311557788952
2.0603015075376887,0.018221105527638195
2.085427135678392,0.018229899497487444
2.1105527638190957,0.01823869346733669
2.1356783919597992,0.018247487437185933
2.1608040201005028,0.018256281407035183
2.1859296482412063,0.018265075376884425
2.21105527638191,0.018273869346733675
2.2361809045226133,0.01828266331658292
2.261306532663317,0.018291457286432167
2.2864321608040203,0.018300251256281413
2.311557788944724,0.018309045226130662
2.3366834170854274,0.018317839195979905
2.361809045226131,0.01832663316582915
2.3869346733668344,0.018335427135678397
2.412060301507538,0.018344221105527643
2.4371859296482414,0.018353015075376893
2.462311557788945,0.018361809045226135
2.4874371859296485,0.018370603015075385
2.512562814070352,0.018379396984924627
2.5376884422110555,0.018388190954773873
2.562814070351759,0.018396984924623123
2.5879396984924625,0.018405778894472365
2.613065326633166,0.018414572864321615
2.6381909547738696,0.018423366834170857
2.663316582914573,0.018432160804020107
2.6884422110552766,0.018440954773869353
2.71356783919598,0.0184497487437186
2.7386934673366836,0.018458542713567845
2.763819095477387,0.018467336683417088
2.7889447236180906,0.018476130653266337
2.814070351758794,0.018484924623115583
2.8391959798994977,0.01849371859296483
2.864321608040201,0.018502512562814075
2.8894472361809047,0.018511306532663325
2.9145728643216082,0.018520100502512567
2.9396984924623117,0.018528894472361817
2.9648241206030153,0.01853768844221106
2.9899497487437188,0.018546482412060306
3.0150753768844223,0.018555276381909555
3.040201005025126,0.018564070351758798
3.0653266331658293,0.018572864321608047
3.090452261306533,0.01858165829145729
3.1155778894472363,0.01859045226130654
3.14070351758794,0.018599246231155785
3.1658291457286434,0.01860804020100503
3.190954773869347,0.018616834170854277
3.2160804020100504,0.01862562814070352
3.241206030150754,0.01863442211055277
3.2663316582914574,0.018643216080402016
3.291457286432161,0.01865201005025126
3.3165829145728645,0.018660804020100508
3.341708542713568,0.018669597989949757
3.3668341708542715,0.018678391959799
3.391959798994975,0.018687185929648246
3.4170854271356785,0.018695979899497492
3.442211055276382,0.018704773869346738
3.4673366834170856,0.018713567839195987
3.492462311557789,0.01872236180904523
3.5175879396984926,0.01873115577889448
3.542713567839196,0.018739949748743726
3.5678391959798996,0.018748743718592968
3.592964824120603,0.018757537688442218
3.6180904522613067,0.01876633165829146
3.64321608040201,0.01877512562814071
3.6683417085427137,0.018783919597989956
3.693467336683417,0.018792713567839202
3.7185929648241207,0.018801507537688448
3.7437185929648242,0.018810301507537694
3.7688442211055277,0.01881909547738694
3.7939698492462313,0.018827889447236186
3.819095477386935,0.018836683417085432
3.8442211055276383,0.018845477386934678
3.869346733668342,0.018854271356783928
3.8944723618090453,0.01886306532663317
3.919597989949749,0.01887185929648242
3.9447236180904524,0.018880653266331662
3.969849246231156,0.018889447236180912
3.9949748743718594,0.018898241206030158
4.020100502512563,0.0189070351758794
4.045226130653266,0.01891582914572865
4.07035175879397,0.018924623115577893
4.0954773869346734,0.018933417085427142
4.120603015075377,0.018942211055276388
4.1457286432160805,0.018951005025125634
4.170854271356784,0.01895979899497488
4.1959798994974875,0.01896859296482413
4.2211055276381915,0.018977386934673372
4.2462311557788945,0.01898618090452262
4.2713567839195985,0.018994974874371864
4.296482412060302,0.01900376884422111
4.3216080402010055,0.01901256281407036
4.346733668341709,0.019021356783919603
4.371859296482413,0.019030150753768852
4.396984924623116,0.019038944723618095
4.42211055276382,0.019047738693467344
4.447236180904523,0.01905653266331659
4.472361809045227,0.019065326633165833
4.49748743718593,0.019074120603015082
4.522613065326634,0.019082914572864325
4.547738693467337,0.019091708542713574
4.572864321608041,0.01910050251256282
4.597989949748744,0.019109296482412066
4.623115577889448,0.019118090452261313
4.648241206030151,0.019126884422110555
4.673366834170855,0.019135678391959805
4.698492462311558,0.01914447236180905
4.723618090452262,0.019153266331658297
4.748743718592965,0.019162060301507543
4.773869346733669,0.019170854271356792
4.798994974874372,0.019179648241206035
4.824120603015076,0.019188442211055284
4.849246231155779,0.019197236180904527
4.874371859296483,0.019206030150753773
4.899497487437186,0.019214824120603023
4.92462311557789,0.019223618090452265
4.949748743718593,0.019232412060301515
4.974874371859297,0.019241206030150757
5.0,0.019250000000000007
